EC-Lab ASCII FILE
Nb header lines : 63                          

Potentio Electrochemical Impedance Spectroscopy

Run on channel : 1 (SN 51265)
User : 
CE vs. WE compliance from -10 V to 10 V
Electrode connection : standard
Potential control : Ewe
Ewe ctrl range : min = -10.00 V, max = 10.00 V
Safety Limits :
	Do not start on E overload
Acquisition started on : 01/10/2024 22:43:12.135
Loaded Setting File :  D:\Manju\2024_01_05\GMTE-38_IP_Uncomp_1.5_SD_1_GF_AG_PVDF_94_6_500mM_TBATFSI_EC_EMC_3_7_5608us_10mV_200kHz_1mHz_Cell 1_25deg_C01.mpr
Saved on :
	File : GMTE-44_IP_Uncomp_1.5_SD_1_GF_AG_PVDF_94_6_500mM_TBAPF6_EC_EMC_3_7_5167us_10mV_200kHz_0.1mHz_Cell 9_25deg_C01.mpr
	Directory : D:\Manju\2024_01_08\
	Host : 192.168.0.10
Device : VSP-3e (SN .003361)
Address : 192.168.0.1
EC-Lab for windows v11.52 (software)
Internet server v11.52 (firmware)
Command interpretor v11.50 (firmware)
Electrode material : 
Initial state : 
Electrolyte : 
Comments : 
Electrode surface area : 0.001 cm²
Characteristic mass : 0.001 g
Equivalent Weight : 0.000 g/eq.
Density : 0.000 g/cm3
Volume (V) : 0.001 cm³
Cycle Definition : Charge/Discharge alternance
Mode                Single sine         
E (V)               0.0000              
vs.                 Eoc                 
tE (h:m:s)          0:00:0.0000         
record              0                   
dI                  0.000               
unit dI             mA                  
dt (s)              0.000               
fi                  200.000             
unit fi             kHz                 
ff                  1.000               
unit ff             mHz                 
Nd                  10                  
Points              per decade          
spacing             Logarithmic         
Va (mV)             10.0                
pw                  3.00                
Na                  5                   
corr                0                   
E range min (V)     -10.000             
E range max (V)     10.000              
I Range             Auto                
Bandwidth           5                   
nc cycles           0                   
goto Ns'            0                   
nr cycles           0                   
inc. cycle          0                   

freq/Hz	Re(Z)/Ohm	-Im(Z)/Ohm	|Z|/Ohm	Phase(Z)/deg	time/s	<Ewe>/V	<I>/mA	Cs/µF	Cp/µF	cycle number	I Range	|Ewe|/V	|I|/A	Ns	(Q-Qo)/mA.h	Re(Y)/Ohm-1	Im(Y)/Ohm-1	|Y|/Ohm-1	Phase(Y)/deg	Re(C)/nF	Im(C)/nF	|C|/nF	Phase(C)/deg	Re(M)	Im(M)	|M|	Phase(M)/deg	Re(Permittivity)	Im(Permittivity)	|Permittivity|	Phase(Permittivity)/deg	Re(Resistivity)/Ohm.cm	Im(Resistivity)/Ohm.cm	|Resistivity|/Ohm.cm	Phase(Resistivity)/deg	Re(Conductivity)/mS/cm	Im(Conductivity)/mS/cm	|Conductivity|/mS/cm	Phase(Conductivity)/deg	Tan(Delta)	Loss Angle(Delta)/deg	dq/mA.h	
1.9999814E+005	4.6532001E+000	1.9153823E+000	5.0319939E+000	-2.2373383E+001	01/10/2024 22:43:15.5115	-3.3050338E-003	-5.1277587E-003	4.1546908E-001	6.0196251E-002	1.000000000000000E+000	10	9.4048744E-003	1.8690154E-003	0	2.881335296163646E-007	1.8376870E-001	7.5644135E-002	1.9872838E-001	2.2373383E+001	6.0196255E+001	1.4623985E+002	1.5814450E+002	-6.7626617E+001	0.0000000E+000	0.0000000E+000	0.0000000E+000	6.7626617E+001	0.0000000E+000	0.0000000E+000	0.0000000E+000	-6.7626617E+001	0.0000000E+000	0.0000000E+000	0.0000000E+000	-2.2373383E+001	0.0000000E+000	0.0000000E+000	0.0000000E+000	2.2373383E+001	2.4293845E+000	6.7626617E+001	2.881335296163646E-007
1.5885727E+005	4.8536353E+000	2.2566462E+000	5.3525906E+000	-2.4935572E+001	01/10/2024 22:43:16.6445	-3.3354997E-003	-5.4741572E-003	4.4396585E-001	7.8912988E-002	1.000000000000000E+000	10	1.0687741E-002	1.9967416E-003	0	-7.670968527357520E-008	1.6941002E-001	7.8765385E-002	1.8682542E-001	2.4935572E+001	7.8912971E+001	1.6972746E+002	1.8717551E+002	-6.5064430E+001	0.0000000E+000	0.0000000E+000	0.0000000E+000	6.5064430E+001	0.0000000E+000	0.0000000E+000	0.0000000E+000	-6.5064430E+001	0.0000000E+000	0.0000000E+000	0.0000000E+000	-2.4935572E+001	0.0000000E+000	0.0000000E+000	0.0000000E+000	2.4935572E+001	2.1508181E+000	6.5064430E+001	-3.648432148899398E-007
1.2618765E+005	5.0738902E+000	2.6593931E+000	5.7285891E+000	-2.7660517E+001	01/10/2024 22:43:17.7785	-3.3348647E-003	-3.4721282E-003	4.7426465E-001	1.0220931E-001	1.000000000000000E+000	10	1.0938196E-002	1.9094048E-003	0	-9.121125864686392E-007	1.5461290E-001	8.1037723E-002	1.7456305E-001	2.7660517E+001	1.0220931E+002	1.9500645E+002	2.2016872E+002	-6.2339485E+001	0.0000000E+000	0.0000000E+000	0.0000000E+000	6.2339485E+001	0.0000000E+000	0.0000000E+000	0.0000000E+000	-6.2339485E+001	0.0000000E+000	0.0000000E+000	0.0000000E+000	-2.7660517E+001	0.0000000E+000	0.0000000E+000	0.0000000E+000	2.7660517E+001	1.9079129E+000	6.2339485E+001	-8.354029011950640E-007
1.0022640E+005	5.3215089E+000	3.1212215E+000	6.1693177E+000	-3.0392878E+001	01/10/2024 22:43:18.9115	-3.3571678E-003	-4.1947267E-003	5.0876051E-001	1.3022318E-001	1.000000000000000E+000	10	1.0884779E-002	1.7643407E-003	0	3.216207142854627E-006	1.3981718E-001	8.2006887E-002	1.6209248E-001	3.0392878E+001	1.3022318E+002	2.2202328E+002	2.5739545E+002	-5.9607124E+001	0.0000000E+000	0.0000000E+000	0.0000000E+000	5.9607124E+001	0.0000000E+000	0.0000000E+000	0.0000000E+000	-5.9607124E+001	0.0000000E+000	0.0000000E+000	0.0000000E+000	-3.0392878E+001	0.0000000E+000	0.0000000E+000	0.0000000E+000	3.0392878E+001	1.7049443E+000	5.9607124E+001	4.128319729323266E-006
7.9609563E+004	5.6020751E+000	3.6654627E+000	6.6946893E+000	-3.3196903E+001	01/10/2024 22:43:20.0445	-3.3420562E-003	-3.4553797E-003	5.4541373E-001	1.6350192E-001	1.000000000000000E+000	10	1.0725598E-002	1.6021054E-003	0	6.654411684986876E-006	1.2499369E-001	8.1783928E-002	1.4937213E-001	3.3196903E+001	1.6350192E+002	2.4988661E+002	2.9862384E+002	-5.6803097E+001	0.0000000E+000	0.0000000E+000	0.0000000E+000	5.6803097E+001	0.0000000E+000	0.0000000E+000	0.0000000E+000	-5.6803097E+001	0.0000000E+000	0.0000000E+000	0.0000000E+000	-3.3196903E+001	0.0000000E+000	0.0000000E+000	0.0000000E+000	3.3196903E+001	1.5283405E+000	5.6803101E+001	3.438204542132250E-006
6.3233004E+004	5.9171224E+000	4.3054190E+000	7.3177161E+000	-3.6040398E+001	01/10/2024 22:43:21.1775	-3.3386005E-003	-2.4832406E-003	5.8460277E-001	2.0236742E-001	1.000000000000000E+000	10	1.0605644E-002	1.4493107E-003	0	7.752961878050377E-006	1.1049928E-001	8.0401525E-002	1.3665466E-001	3.6040398E+001	2.0236742E+002	2.7812228E+002	3.4395432E+002	-5.3959602E+001	0.0000000E+000	0.0000000E+000	0.0000000E+000	5.3959602E+001	0.0000000E+000	0.0000000E+000	0.0000000E+000	-5.3959602E+001	0.0000000E+000	0.0000000E+000	0.0000000E+000	-3.6040398E+001	0.0000000E+000	0.0000000E+000	0.0000000E+000	3.6040398E+001	1.3743430E+000	5.3959602E+001	1.098550193063501E-006
5.0224539E+004	6.2827191E+000	5.0536509E+000	8.0629988E+000	-3.8812267E+001	01/10/2024 22:43:22.3105	-3.3497708E-003	-3.2784650E-003	6.2704533E-001	2.4632938E-001	1.000000000000000E+000	10	1.0470922E-002	1.2986386E-003	0	7.840598388581484E-006	9.6639454E-002	7.7734187E-002	1.2402333E-001	3.8812267E+001	2.4632939E+002	3.0623770E+002	3.9301361E+002	-5.1187733E+001	0.0000000E+000	0.0000000E+000	0.0000000E+000	5.1187733E+001	0.0000000E+000	0.0000000E+000	0.0000000E+000	-5.1187733E+001	0.0000000E+000	0.0000000E+000	0.0000000E+000	-3.8812267E+001	0.0000000E+000	0.0000000E+000	0.0000000E+000	3.8812267E+001	1.2432040E+000	5.1187729E+001	8.763651053110692E-008
3.9897566E+004	6.6892138E+000	5.9392500E+000	8.9454050E+000	-4.1601379E+001	01/10/2024 22:43:23.4435	-3.3514518E-003	-4.2580650E-003	6.7164862E-001	2.9607746E-001	1.000000000000000E+000	10	1.0360979E-002	1.1582458E-003	0	5.620731864920041E-006	8.3593987E-002	7.4221812E-002	1.1178923E-001	4.1601379E+001	2.9607742E+002	3.3346387E+002	4.4593719E+002	-4.8398621E+001	0.0000000E+000	0.0000000E+000	0.0000000E+000	4.8398621E+001	0.0000000E+000	0.0000000E+000	0.0000000E+000	-4.8398621E+001	0.0000000E+000	0.0000000E+000	0.0000000E+000	-4.1601379E+001	0.0000000E+000	0.0000000E+000	0.0000000E+000	4.1601379E+001	1.1262724E+000	4.8398621E+001	-2.219866523661443E-006
3.1686090E+004	7.1442728E+000	6.9842191E+000	9.9909935E+000	-4.4350956E+001	01/10/2024 22:43:24.5765	-3.3411596E-003	-3.5671366E-003	7.1917337E-001	3.5144064E-001	1.000000000000000E+000	10	1.0186893E-002	1.0196076E-003	0	5.823881811313590E-006	7.1571596E-002	6.9968171E-002	1.0009015E-001	4.4350956E+001	3.5144067E+002	3.5949445E+002	5.0273929E+002	-4.5649044E+001	0.0000000E+000	0.0000000E+000	0.0000000E+000	4.5649044E+001	0.0000000E+000	0.0000000E+000	0.0000000E+000	-4.5649044E+001	0.0000000E+000	0.0000000E+000	0.0000000E+000	-4.4350956E+001	0.0000000E+000	0.0000000E+000	0.0000000E+000	4.4350956E+001	1.0229164E+000	4.5649048E+001	2.031499463935488E-007
2.5172580E+004	7.6679583E+000	8.2550116E+000	1.1266890E+001	-4.7111446E+001	01/10/2024 22:43:25.5745	-3.3404496E-003	-3.6639753E-003	7.6590472E-001	4.1115162E-001	1.000000000000000E+000	10	1.0714707E-002	9.5099071E-004	0	5.521771336879788E-006	6.0404826E-002	6.5029383E-002	8.8755637E-002	4.7111446E+001	4.1115167E+002	3.8191266E+002	5.6116217E+002	-4.2888554E+001	0.0000000E+000	0.0000000E+000	0.0000000E+000	4.2888554E+001	0.0000000E+000	0.0000000E+000	0.0000000E+000	-4.2888554E+001	0.0000000E+000	0.0000000E+000	0.0000000E+000	-4.7111446E+001	0.0000000E+000	0.0000000E+000	0.0000000E+000	4.7111446E+001	9.2888522E-001	4.2888550E+001	-3.021104744338017E-007
1.9995176E+004	8.2488089E+000	9.8085012E+000	1.2815988E+001	-4.9936646E+001	01/10/2024 22:43:26.5715	-3.3366766E-003	-3.8725657E-003	8.1150693E-001	4.7532800E-001	1.000000000000000E+000	10	1.0631254E-002	8.2953059E-004	0	5.552195832417864E-006	5.0221197E-002	5.9717067E-002	7.8027539E-002	4.9936646E+001	4.7532797E+002	3.9974402E+002	6.2107324E+002	-4.0063354E+001	0.0000000E+000	0.0000000E+000	0.0000000E+000	4.0063354E+001	0.0000000E+000	0.0000000E+000	0.0000000E+000	-4.0063354E+001	0.0000000E+000	0.0000000E+000	0.0000000E+000	-4.9936646E+001	0.0000000E+000	0.0000000E+000	0.0000000E+000	4.9936646E+001	8.4098566E-001	4.0063354E+001	3.042449553807617E-008
1.5884798E+004	8.9948883E+000	1.1696169E+001	1.4754944E+001	-5.2438072E+001	01/10/2024 22:43:27.5685	-3.3512090E-003	-3.5243132E-003	8.5663301E-001	5.3827840E-001	1.000000000000000E+000	10	1.0333841E-002	7.0036465E-004	0	5.678485302015259E-006	4.1316222E-002	5.3724021E-002	6.7773893E-002	5.2438072E+001	5.3827832E+002	4.1396063E+002	6.7904858E+002	-3.7561928E+001	0.0000000E+000	0.0000000E+000	0.0000000E+000	3.7561928E+001	0.0000000E+000	0.0000000E+000	0.0000000E+000	-3.7561928E+001	0.0000000E+000	0.0000000E+000	0.0000000E+000	-5.2438072E+001	0.0000000E+000	0.0000000E+000	0.0000000E+000	5.2438072E+001	7.6904571E-001	3.7561920E+001	1.262894695973952E-007
1.2618766E+004	9.9140644E+000	1.4003845E+001	1.7157982E+001	-5.4703300E+001	01/10/2024 22:43:28.5655	-3.3457547E-003	-4.2077955E-003	9.0064991E-001	5.9995431E-001	1.000000000000000E+000	10	1.0008976E-002	5.8334228E-004	0	5.496213597292403E-006	3.3675909E-002	4.7568001E-002	5.8281913E-002	5.4703300E+001	5.9995428E+002	4.2473944E+002	7.3508417E+002	-3.5296700E+001	0.0000000E+000	0.0000000E+000	0.0000000E+000	3.5296700E+001	0.0000000E+000	0.0000000E+000	0.0000000E+000	-3.5296700E+001	0.0000000E+000	0.0000000E+000	0.0000000E+000	-5.4703300E+001	0.0000000E+000	0.0000000E+000	0.0000000E+000	5.4703300E+001	7.0795304E-001	3.5296692E+001	-1.822717047228560E-007
1.0020785E+004	1.1005923E+001	1.6611073E+001	1.9926315E+001	-5.6472919E+001	01/10/2024 22:43:29.5635	-3.3498828E-003	-3.2188918E-003	9.5613831E-001	6.6444963E-001	1.000000000000000E+000	10	9.7019486E-003	4.8689125E-004	0	4.739982677361695E-006	2.7718676E-002	4.1835375E-002	5.0184894E-002	5.6472919E+001	6.6444958E+002	4.4024136E+002	7.9706067E+002	-3.3527081E+001	0.0000000E+000	0.0000000E+000	0.0000000E+000	3.3527081E+001	0.0000000E+000	0.0000000E+000	0.0000000E+000	-3.3527081E+001	0.0000000E+000	0.0000000E+000	0.0000000E+000	-5.6472919E+001	0.0000000E+000	0.0000000E+000	0.0000000E+000	5.6472919E+001	6.6256547E-001	3.3527084E+001	-7.562309199307085E-007
7.9597607E+003	1.2650828E+001	2.0050573E+001	2.3707993E+001	-5.7750286E+001	01/10/2024 22:43:30.7177	-3.2758566E-003	1.0232867E-002	9.9722540E-001	7.1327555E-001	1.000000000000000E+000	10	9.5087877E-003	4.0107942E-004	0	7.437849557205077E-006	2.2507612E-002	3.5672799E-002	4.2179868E-002	5.7750286E+001	7.1327551E+002	4.5003833E+002	8.4338391E+002	-3.2249714E+001	0.0000000E+000	0.0000000E+000	0.0000000E+000	3.2249714E+001	0.0000000E+000	0.0000000E+000	0.0000000E+000	-3.2249714E+001	0.0000000E+000	0.0000000E+000	0.0000000E+000	-5.7750286E+001	0.0000000E+000	0.0000000E+000	0.0000000E+000	5.7750286E+001	6.3094598E-001	3.2249710E+001	2.697866879843382E-006
6.3238188E+003	1.4637331E+001	2.4047590E+001	2.8152052E+001	-5.8671886E+001	01/10/2024 22:43:32.1303	-3.2378070E-003	7.1990946E-003	1.0465721E+000	7.6364613E-001	1.000000000000000E+000	10	9.3742013E-003	3.3298467E-004	0	1.053109388121569E-005	1.8468931E-002	3.0342504E-002	3.5521388E-002	5.8671886E+001	7.6364618E+002	4.6481750E+002	8.9398590E+002	-3.1328114E+001	0.0000000E+000	0.0000000E+000	0.0000000E+000	3.1328114E+001	0.0000000E+000	0.0000000E+000	0.0000000E+000	-3.1328114E+001	0.0000000E+000	0.0000000E+000	0.0000000E+000	-5.8671886E+001	0.0000000E+000	0.0000000E+000	0.0000000E+000	5.8671886E+001	6.0868180E-001	3.1328110E+001	3.093244324010609E-006
5.0216069E+003	1.7338045E+001	2.8503357E+001	3.3362392E+001	-5.8688652E+001	01/10/2024 22:43:33.8327	-3.1558422E-003	1.0750597E-002	1.1119401E+000	8.1163180E-001	1.000000000000000E+000	10	9.2670331E-003	2.7776885E-004	0	1.560826715748408E-005	1.5577070E-002	2.5608353E-002	2.9973870E-002	5.8688652E+001	8.1163184E+002	4.9370007E+002	9.4999261E+002	-3.1311348E+001	0.0000000E+000	0.0000000E+000	0.0000000E+000	3.1311348E+001	0.0000000E+000	0.0000000E+000	0.0000000E+000	-3.1311348E+001	0.0000000E+000	0.0000000E+000	0.0000000E+000	-5.8688652E+001	0.0000000E+000	0.0000000E+000	0.0000000E+000	5.8688652E+001	6.0828084E-001	3.1311340E+001	5.077173276268394E-006
3.9861731E+003	2.1007858E+001	3.3674431E+001	3.9690018E+001	-5.8041943E+001	01/10/2024 22:43:35.7899	-3.2320165E-003	3.8982616E-004	1.1856698E+000	8.5349637E-001	1.000000000000000E+000	11	1.0495796E-002	2.6444421E-004	0	1.788228353057639E-005	1.3335804E-002	2.1376554E-002	2.5195252E-002	5.8041943E+001	8.5349640E+002	5.3245538E+002	1.0059646E+003	-3.1958057E+001	0.0000000E+000	0.0000000E+000	0.0000000E+000	3.1958057E+001	0.0000000E+000	0.0000000E+000	0.0000000E+000	-3.1958057E+001	0.0000000E+000	0.0000000E+000	0.0000000E+000	-5.8041943E+001	0.0000000E+000	0.0000000E+000	0.0000000E+000	5.8041943E+001	6.2385190E-001	3.1958054E+001	2.274016373092307E-006
3.1669595E+003	2.5561317E+001	3.9221493E+001	4.6815666E+001	-5.6907024E+001	01/10/2024 22:43:37.4920	-3.2266553E-003	3.8703156E-004	1.2813079E+000	8.9933050E-001	1.000000000000000E+000	11	9.9851349E-003	2.1328618E-004	0	1.792312527201809E-005	1.1662747E-002	1.7895414E-002	2.1360371E-002	5.6907024E+001	8.9933051E+002	5.8610907E+002	1.0734613E+003	-3.3092976E+001	0.0000000E+000	0.0000000E+000	0.0000000E+000	3.3092976E+001	0.0000000E+000	0.0000000E+000	0.0000000E+000	-3.3092976E+001	0.0000000E+000	0.0000000E+000	0.0000000E+000	-5.6907024E+001	0.0000000E+000	0.0000000E+000	0.0000000E+000	5.6907024E+001	6.5171713E-001	3.3092972E+001	4.084174144170841E-008
2.5158047E+003	3.1192822E+001	4.5209385E+001	5.4926136E+001	-5.5395744E+001	01/10/2024 22:43:39.1947	-3.2140468E-003	3.6914702E-004	1.3993123E+000	9.4801176E-001	1.000000000000000E+000	11	9.6538365E-003	1.7576035E-004	0	1.822507520827963E-005	1.0339429E-002	1.4985474E-002	1.8206269E-002	5.5395744E+001	9.4801160E+002	6.5409332E+002	1.1517656E+003	-3.4604256E+001	0.0000000E+000	0.0000000E+000	0.0000000E+000	3.4604256E+001	0.0000000E+000	0.0000000E+000	0.0000000E+000	-3.4604256E+001	0.0000000E+000	0.0000000E+000	0.0000000E+000	-5.5395744E+001	0.0000000E+000	0.0000000E+000	0.0000000E+000	5.5395744E+001	6.8996340E-001	3.4604248E+001	3.019499362615311E-007
1.9980818E+003	3.8236813E+001	5.1268692E+001	6.3957272E+001	-5.3283978E+001	01/10/2024 22:43:40.8980	-3.2260576E-003	3.1214152E-004	1.5536551E+000	9.9834180E-001	1.000000000000000E+000	11	9.4598699E-003	1.4790922E-004	0	1.849568487798953E-005	9.3476363E-003	1.2533500E-002	1.5635438E-002	5.3283978E+001	9.9834180E+002	7.4457544E+002	1.2454232E+003	-3.6716022E+001	0.0000000E+000	0.0000000E+000	0.0000000E+000	3.6716022E+001	0.0000000E+000	0.0000000E+000	0.0000000E+000	-3.6716022E+001	0.0000000E+000	0.0000000E+000	0.0000000E+000	-5.3283978E+001	0.0000000E+000	0.0000000E+000	0.0000000E+000	5.3283978E+001	7.4581212E-001	3.6716019E+001	2.706096697099083E-007
1.5884750E+003	4.6364098E+001	5.7217461E+001	7.3644196E+001	-5.0981674E+001	01/10/2024 22:43:42.6000	-3.2269356E-003	2.6463845E-004	1.7511010E+000	1.0570396E+000	1.000000000000000E+000	11	9.3197869E-003	1.2655155E-004	0	1.869707698300287E-005	8.5487925E-003	1.0549977E-002	1.3578802E-002	5.0981674E+001	1.0570397E+003	8.5653381E+002	1.3605084E+003	-3.9018326E+001	0.0000000E+000	0.0000000E+000	0.0000000E+000	3.9018326E+001	0.0000000E+000	0.0000000E+000	0.0000000E+000	-3.9018326E+001	0.0000000E+000	0.0000000E+000	0.0000000E+000	-5.0981674E+001	0.0000000E+000	0.0000000E+000	0.0000000E+000	5.0981674E+001	8.1031382E-001	3.9018326E+001	2.013921050133348E-007
1.2604036E+003	5.5775795E+001	6.2985626E+001	8.4131615E+001	-4.8474079E+001	01/10/2024 22:43:44.2997	-3.2265061E-003	3.1176856E-004	2.0047908E+000	1.1236564E+000	1.000000000000000E+000	11	9.2384322E-003	1.0980928E-004	0	1.883581956867298E-005	7.8800200E-003	8.8986270E-003	1.1886138E-002	4.8474079E+001	1.1236564E+003	9.9503387E+002	1.5008984E+003	-4.1525921E+001	0.0000000E+000	0.0000000E+000	0.0000000E+000	4.1525921E+001	0.0000000E+000	0.0000000E+000	0.0000000E+000	-4.1525921E+001	0.0000000E+000	0.0000000E+000	0.0000000E+000	-4.8474079E+001	0.0000000E+000	0.0000000E+000	0.0000000E+000	4.8474079E+001	8.8553214E-001	4.1525925E+001	1.387425856701139E-007
1.0016024E+003	6.5989143E+001	6.8325882E+001	9.4989433E+001	-4.5996700E+001	01/10/2024 22:43:45.9974	-3.2298870E-003	3.9708725E-004	2.3256242E+000	1.2032598E+000	1.000000000000000E+000	11	9.1810143E-003	9.6653006E-005	0	1.897768941023545E-005	7.3134429E-003	7.5724190E-003	1.0527487E-002	4.5996700E+001	1.2032599E+003	1.1621084E+003	1.6728210E+003	-4.4003300E+001	0.0000000E+000	0.0000000E+000	0.0000000E+000	4.4003300E+001	0.0000000E+000	0.0000000E+000	0.0000000E+000	-4.4003300E+001	0.0000000E+000	0.0000000E+000	0.0000000E+000	-4.5996700E+001	0.0000000E+000	0.0000000E+000	0.0000000E+000	4.5996700E+001	9.6580011E-001	4.4003296E+001	1.418698415624642E-007
7.9525409E+002	7.7066444E+001	7.3200333E+001	1.0628982E+002	-4.3526199E+001	01/10/2024 22:43:47.6987	-3.2236481E-003	2.9816903E-004	2.7340167E+000	1.2967132E+000	1.000000000000000E+000	11	9.1404701E-003	8.5995729E-005	0	1.923631399811226E-005	6.8215337E-003	6.4793243E-003	9.4082393E-003	4.3526199E+001	1.2967133E+003	1.3652000E+003	1.8828798E+003	-4.6473801E+001	0.0000000E+000	0.0000000E+000	0.0000000E+000	4.6473801E+001	0.0000000E+000	0.0000000E+000	0.0000000E+000	-4.6473801E+001	0.0000000E+000	0.0000000E+000	0.0000000E+000	-4.3526199E+001	0.0000000E+000	0.0000000E+000	0.0000000E+000	4.3526199E+001	1.0528154E+000	4.6473801E+001	2.586245878768137E-007
6.3181964E+002	8.8629105E+001	7.7487717E+001	1.1772623E+002	-4.1162941E+001	01/10/2024 22:43:49.3952	-3.2261510E-003	2.8717800E-004	3.2508292E+000	1.4083592E+000	1.000000000000000E+000	11	9.1136144E-003	7.7413628E-005	0	1.940134453103059E-005	6.3948436E-003	5.5909604E-003	8.4942840E-003	4.1162941E+001	1.4083591E+003	1.6108567E+003	2.1397043E+003	-4.8837059E+001	0.0000000E+000	0.0000000E+000	0.0000000E+000	4.8837059E+001	0.0000000E+000	0.0000000E+000	0.0000000E+000	-4.8837059E+001	0.0000000E+000	0.0000000E+000	0.0000000E+000	-4.1162941E+001	0.0000000E+000	0.0000000E+000	0.0000000E+000	4.1162941E+001	1.1437826E+000	4.8837067E+001	1.650305329183323E-007
5.0208865E+002	1.0050567E+002	8.1640732E+001	1.2948590E+002	-3.9086948E+001	01/10/2024 22:43:51.0909	-3.2297189E-003	2.6966666E-004	3.8826909E+000	1.5434823E+000	1.000000000000000E+000	11	9.1013219E-003	7.0288130E-005	0	1.958458665791032E-005	5.9943981E-003	4.8692483E-003	7.7228486E-003	3.9086948E+001	1.5434822E+003	1.9001387E+003	2.4480327E+003	-5.0913052E+001	0.0000000E+000	0.0000000E+000	0.0000000E+000	5.0913052E+001	0.0000000E+000	0.0000000E+000	0.0000000E+000	-5.0913052E+001	0.0000000E+000	0.0000000E+000	0.0000000E+000	-3.9086948E+001	0.0000000E+000	0.0000000E+000	0.0000000E+000	3.9086948E+001	1.2310727E+000	5.0913055E+001	1.832421268797317E-007
3.9859698E+002	1.1261822E+002	8.5616104E+001	1.4146724E+002	-3.7243301E+001	01/10/2024 22:43:52.7955	-3.2397870E-003	3.3579802E-004	4.6637006E+000	1.7081650E+000	1.000000000000000E+000	11	9.0900911E-003	6.4255801E-005	0	1.978038170563741E-005	5.6272587E-003	4.2780288E-003	7.0687742E-003	3.7243301E+001	1.7081649E+003	2.2468962E+003	2.8224758E+003	-5.2756699E+001	0.0000000E+000	0.0000000E+000	0.0000000E+000	5.2756699E+001	0.0000000E+000	0.0000000E+000	0.0000000E+000	-5.2756699E+001	0.0000000E+000	0.0000000E+000	0.0000000E+000	-3.7243301E+001	0.0000000E+000	0.0000000E+000	0.0000000E+000	3.7243301E+001	1.3153859E+000	5.2756699E+001	1.957950477270865E-007
3.1672299E+002	1.2486700E+002	8.9480408E+001	1.5361807E+002	-3.5625599E+001	01/10/2024 22:43:54.4897	-3.2342952E-003	2.5699934E-004	5.6158118E+000	1.9053899E+000	1.000000000000000E+000	11	9.0750940E-003	5.9075694E-005	0	1.992432381463045E-005	5.2913087E-003	3.7917818E-003	6.5096510E-003	3.5625599E+001	1.9053899E+003	2.6589097E+003	3.2711331E+003	-5.4374401E+001	0.0000000E+000	0.0000000E+000	0.0000000E+000	5.4374401E+001	0.0000000E+000	0.0000000E+000	0.0000000E+000	-5.4374401E+001	0.0000000E+000	0.0000000E+000	0.0000000E+000	-3.5625599E+001	0.0000000E+000	0.0000000E+000	0.0000000E+000	3.5625599E+001	1.3954675E+000	5.4374405E+001	1.439421089930372E-007
2.5169135E+002	1.3733493E+002	9.3710518E+001	1.6626047E+002	-3.4307682E+001	01/10/2024 22:43:56.1794	-3.2346502E-003	1.9869200E-004	6.7478204E+000	2.1436911E+000	1.000000000000000E+000	11	9.0732137E-003	5.4572283E-005	0	2.006670904171228E-005	4.9682450E-003	3.3900833E-003	6.0146591E-003	3.4307682E+001	2.1436909E+003	3.1416287E+003	3.8033198E+003	-5.5692318E+001	0.0000000E+000	0.0000000E+000	0.0000000E+000	5.5692318E+001	0.0000000E+000	0.0000000E+000	0.0000000E+000	-5.5692318E+001	0.0000000E+000	0.0000000E+000	0.0000000E+000	-3.4307682E+001	0.0000000E+000	0.0000000E+000	0.0000000E+000	3.4307682E+001	1.4655231E+000	5.5692322E+001	1.423852270818314E-007
1.9980818E+002	1.4977963E+002	9.8503471E+001	1.7926759E+002	-3.3331158E+001	01/10/2024 22:43:57.8830	-3.2369478E-003	3.7864354E-004	8.0864019E+000	2.4414892E+000	1.000000000000000E+000	11	9.0733813E-003	5.0613617E-005	0	2.025485388879073E-005	4.6606786E-003	3.0651230E-003	5.5782530E-003	3.3331158E+001	2.4414890E+003	3.7124106E+003	4.4432939E+003	-5.6668842E+001	0.0000000E+000	0.0000000E+000	0.0000000E+000	5.6668842E+001	0.0000000E+000	0.0000000E+000	0.0000000E+000	-5.6668842E+001	0.0000000E+000	0.0000000E+000	0.0000000E+000	-3.3331158E+001	0.0000000E+000	0.0000000E+000	0.0000000E+000	3.3331158E+001	1.5205518E+000	5.6668839E+001	1.881448470784459E-007
1.5862943E+002	1.6262926E+002	1.0380630E+002	1.9293529E+002	-3.2550098E+001	01/10/2024 22:43:59.5955	-3.2387970E-003	4.4999088E-004	9.6652403E+000	2.7979295E+000	1.000000000000000E+000	11	9.0778954E-003	4.7051504E-005	0	2.047341734410869E-005	4.3689329E-003	2.7886906E-003	5.1830849E-003	3.2550098E+001	2.7979290E+003	4.3834063E+003	5.2002554E+003	-5.7449902E+001	0.0000000E+000	0.0000000E+000	0.0000000E+000	5.7449902E+001	0.0000000E+000	0.0000000E+000	0.0000000E+000	-5.7449902E+001	0.0000000E+000	0.0000000E+000	0.0000000E+000	-3.2550098E+001	0.0000000E+000	0.0000000E+000	0.0000000E+000	3.2550098E+001	1.5666608E+000	5.7449905E+001	2.185634553179601E-007
1.2600809E+002	1.7591554E+002	1.1060802E+002	2.0779898E+002	-3.2159889E+001	01/10/2024 22:44:01.2842	-3.2345380E-003	1.6516024E-004	1.1419183E+001	3.2353516E+000	1.000000000000000E+000	11	9.0627596E-003	4.3613109E-005	0	2.066183016653303E-005	4.0739658E-003	2.5615320E-003	4.8123430E-003	3.2159889E+001	3.2353516E+003	5.1456367E+003	6.0782461E+003	-5.7840111E+001	0.0000000E+000	0.0000000E+000	0.0000000E+000	5.7840111E+001	0.0000000E+000	0.0000000E+000	0.0000000E+000	-5.7840111E+001	0.0000000E+000	0.0000000E+000	0.0000000E+000	-3.2159889E+001	0.0000000E+000	0.0000000E+000	0.0000000E+000	3.2159889E+001	1.5904411E+000	5.7840111E+001	1.884128224243490E-007
1.0016024E+002	1.9046194E+002	1.1929786E+002	2.2473926E+002	-3.2061405E+001	01/10/2024 22:44:03.2354	-3.2147567E-003	-6.3822736E-005	1.3319629E+001	3.7531810E+000	1.000000000000000E+000	12	9.0939999E-003	4.0464671E-005	0	2.069778433627936E-005	3.7709463E-003	2.3619719E-003	4.4496008E-003	3.2061405E+001	3.7531812E+003	5.9920459E+003	7.0704302E+003	-5.7938595E+001	0.0000000E+000	0.0000000E+000	0.0000000E+000	5.7938595E+001	0.0000000E+000	0.0000000E+000	0.0000000E+000	-5.7938595E+001	0.0000000E+000	0.0000000E+000	0.0000000E+000	-3.2061405E+001	0.0000000E+000	0.0000000E+000	0.0000000E+000	3.2061405E+001	1.5965244E+000	5.7938599E+001	3.595416974632267E-008
7.9516548E+001	2.0500827E+002	1.2869992E+002	2.4205797E+002	-3.2119747E+001	01/10/2024 22:44:04.9470	-3.2177640E-003	-5.7376441E-005	1.5551931E+001	4.3964496E+000	1.000000000000000E+000	12	9.0815686E-003	3.7518155E-005	0	2.067820941505872E-005	3.4989086E-003	2.1965420E-003	4.1312417E-003	3.2119747E+001	4.3964497E+003	7.0031782E+003	8.2688135E+003	-5.7880253E+001	0.0000000E+000	0.0000000E+000	0.0000000E+000	5.7880253E+001	0.0000000E+000	0.0000000E+000	0.0000000E+000	-5.7880253E+001	0.0000000E+000	0.0000000E+000	0.0000000E+000	-3.2119747E+001	0.0000000E+000	0.0000000E+000	0.0000000E+000	3.2119747E+001	1.5929168E+000	5.7880249E+001	-1.957492122063744E-008
6.3160763E+001	2.2068292E+002	1.3978419E+002	2.6122897E+002	-3.2350842E+001	01/10/2024 22:44:06.6916	-3.2111516E-003	-4.1875570E-005	1.8026636E+001	5.1616454E+000	1.000000000000000E+000	12	9.0786694E-003	3.4753684E-005	0	2.065815601894165E-005	3.2338959E-003	2.0484028E-003	3.8280592E-003	3.2350842E+001	5.1616455E+003	8.1488970E+003	9.6460928E+003	-5.7649158E+001	0.0000000E+000	0.0000000E+000	0.0000000E+000	5.7649158E+001	0.0000000E+000	0.0000000E+000	0.0000000E+000	-5.7649158E+001	0.0000000E+000	0.0000000E+000	0.0000000E+000	-3.2350842E+001	0.0000000E+000	0.0000000E+000	0.0000000E+000	3.2350842E+001	1.5787401E+000	5.7649155E+001	-2.005339611706668E-008
5.0208866E+001	2.3763699E+002	1.5291237E+002	2.8258368E+002	-3.2760078E+001	01/10/2024 22:44:08.3879	-3.2192585E-003	-4.6962003E-005	2.0729893E+001	6.0699925E+000	1.000000000000000E+000	12	9.0704225E-003	3.2098182E-005	0	2.057815105653178E-005	2.9759109E-003	1.9149103E-003	3.5387748E-003	3.2760078E+001	6.0699932E+003	9.4332139E+003	1.1217412E+004	-5.7239922E+001	0.0000000E+000	0.0000000E+000	0.0000000E+000	5.7239922E+001	0.0000000E+000	0.0000000E+000	0.0000000E+000	-5.7239922E+001	0.0000000E+000	0.0000000E+000	0.0000000E+000	-3.2760078E+001	0.0000000E+000	0.0000000E+000	0.0000000E+000	3.2760078E+001	1.5540731E+000	5.7239922E+001	-8.000496240987678E-008
3.9859695E+001	2.5664725E+002	1.6773610E+002	3.0659943E+002	-3.3167297E+001	01/10/2024 22:44:10.0925	-3.2146634E-003	-3.1256168E-005	2.3804531E+001	7.1247563E+000	1.000000000000000E+000	12	9.0693962E-003	2.9580604E-005	0	2.054602729148105E-005	2.7301966E-003	1.7843659E-003	3.2615848E-003	3.3167297E+001	7.1247568E+003	1.0901345E+004	1.3023113E+004	-5.6832703E+001	0.0000000E+000	0.0000000E+000	0.0000000E+000	5.6832703E+001	0.0000000E+000	0.0000000E+000	0.0000000E+000	-5.6832703E+001	0.0000000E+000	0.0000000E+000	0.0000000E+000	-3.3167297E+001	0.0000000E+000	0.0000000E+000	0.0000000E+000	3.3167297E+001	1.5300657E+000	5.6832703E+001	-3.212376505073113E-008
3.1672298E+001	2.7739142E+002	1.8480783E+002	3.3331656E+002	-3.3672935E+001	01/10/2024 22:44:11.7102	-3.2175959E-003	-6.4251726E-005	2.7190689E+001	8.3588619E+000	1.000000000000000E+000	12	9.0640746E-003	2.7193591E-005	0	2.052629820959575E-005	2.4967738E-003	1.6634378E-003	3.0001509E-003	3.3672935E+001	8.3588613E+003	1.2546419E+004	1.5075914E+004	-5.6327065E+001	0.0000000E+000	0.0000000E+000	0.0000000E+000	5.6327065E+001	0.0000000E+000	0.0000000E+000	0.0000000E+000	-5.6327065E+001	0.0000000E+000	0.0000000E+000	0.0000000E+000	-3.3672935E+001	0.0000000E+000	0.0000000E+000	0.0000000E+000	3.3672935E+001	1.5009722E+000	5.6327065E+001	-1.972908188529251E-008
2.5136747E+001	2.9991064E+002	2.0350832E+002	3.6243900E+002	-3.4159370E+001	01/10/2024 22:44:13.4047	-3.2097693E-003	-7.6175558E-005	3.1112068E+001	9.8089695E+000	1.000000000000000E+000	12	9.0616085E-003	2.5001747E-005	0	2.051370967913944E-005	2.2830849E-003	1.5492173E-003	2.7590850E-003	3.4159370E+001	9.8089688E+003	1.4455498E+004	1.7469324E+004	-5.5840630E+001	0.0000000E+000	0.0000000E+000	0.0000000E+000	5.5840630E+001	0.0000000E+000	0.0000000E+000	0.0000000E+000	-5.5840630E+001	0.0000000E+000	0.0000000E+000	0.0000000E+000	-3.4159370E+001	0.0000000E+000	0.0000000E+000	0.0000000E+000	3.4159370E+001	1.4737022E+000	5.5840630E+001	-1.258853045631549E-008
1.9980818E+001	3.2521143E+002	2.2529004E+002	3.9562366E+002	-3.4712261E+001	01/10/2024 22:44:15.1080	-3.2087793E-003	-7.2412156E-005	3.5356144E+001	1.1465272E+001	1.000000000000000E+000	12	9.0609957E-003	2.2903068E-005	0	2.048675232694121E-005	2.0777881E-003	1.4393867E-003	2.5276546E-003	3.4712261E+001	1.1465272E+004	1.6550389E+004	2.0133748E+004	-5.5287739E+001	0.0000000E+000	0.0000000E+000	0.0000000E+000	5.5287739E+001	0.0000000E+000	0.0000000E+000	0.0000000E+000	-5.5287739E+001	0.0000000E+000	0.0000000E+000	0.0000000E+000	-3.4712261E+001	0.0000000E+000	0.0000000E+000	0.0000000E+000	3.4712261E+001	1.4435233E+000	5.5287735E+001	-2.695735219822456E-008
1.5857577E+001	3.5423538E+002	2.5028465E+002	4.3373392E+002	-3.5243080E+001	01/10/2024 22:44:16.7229	-3.2196881E-003	-6.0544255E-005	4.0100433E+001	1.3352752E+001	1.000000000000000E+000	12	9.0600597E-003	2.0888519E-005	0	2.036075098498087E-005	1.8829776E-003	1.3304161E-003	2.3055610E-003	3.5243080E+001	1.3352751E+004	1.8898549E+004	2.3139816E+004	-5.4756920E+001	0.0000000E+000	0.0000000E+000	0.0000000E+000	5.4756920E+001	0.0000000E+000	0.0000000E+000	0.0000000E+000	-5.4756920E+001	0.0000000E+000	0.0000000E+000	0.0000000E+000	-3.5243080E+001	0.0000000E+000	0.0000000E+000	0.0000000E+000	3.5243080E+001	1.4153301E+000	5.4756920E+001	-1.260013419603446E-007
1.2600809E+001	3.8497726E+002	2.7692169E+002	4.7422897E+002	-3.5728203E+001	01/10/2024 22:44:18.7269	-3.2186140E-003	-2.0673961E-005	4.5610489E+001	1.5552583E+001	1.000000000000000E+000	12	9.0606427E-003	1.9106050E-005	0	2.041552420048204E-005	1.7118232E-003	1.2313479E-003	2.1086859E-003	3.5728203E+001	1.5552582E+004	2.1621242E+004	2.6633830E+004	-5.4271797E+001	0.0000000E+000	0.0000000E+000	0.0000000E+000	5.4271797E+001	0.0000000E+000	0.0000000E+000	0.0000000E+000	-5.4271797E+001	0.0000000E+000	0.0000000E+000	0.0000000E+000	-3.5728203E+001	0.0000000E+000	0.0000000E+000	0.0000000E+000	3.5728203E+001	1.3902026E+000	5.4271797E+001	5.477321550117481E-008
1.0016025E+001	4.1911945E+002	3.0717764E+002	5.1963373E+002	-3.6238132E+001	01/10/2024 22:44:20.4244	-3.2202485E-003	-4.7875270E-005	5.1729130E+001	1.8076723E+001	1.000000000000000E+000	12	9.0579866E-003	1.7431483E-005	0	2.039494646014393E-005	1.5521839E-003	1.1376140E-003	1.9244325E-003	3.6238132E+001	1.8076723E+004	2.4664250E+004	3.0579293E+004	-5.3761868E+001	0.0000000E+000	0.0000000E+000	0.0000000E+000	5.3761868E+001	0.0000000E+000	0.0000000E+000	0.0000000E+000	-5.3761868E+001	0.0000000E+000	0.0000000E+000	0.0000000E+000	-3.6238132E+001	0.0000000E+000	0.0000000E+000	0.0000000E+000	3.6238132E+001	1.3644204E+000	5.3761871E+001	-2.057774033811395E-008
7.9557004E+000	4.5771875E+002	3.4247116E+002	5.7165808E+002	-3.6804317E+001	01/10/2024 22:44:22.5332	-3.2141777E-003	-4.8275931E-005	5.8414101E+001	2.0964911E+001	1.000000000000000E+000	12	9.0590697E-003	1.5847007E-005	0	2.026531547235067E-005	1.4006384E-003	1.0479760E-003	1.7492974E-003	3.6804317E+001	2.0964912E+004	2.8019975E+004	3.4994949E+004	-5.3195683E+001	0.0000000E+000	0.0000000E+000	0.0000000E+000	5.3195683E+001	0.0000000E+000	0.0000000E+000	0.0000000E+000	-5.3195683E+001	0.0000000E+000	0.0000000E+000	0.0000000E+000	-3.6804317E+001	0.0000000E+000	0.0000000E+000	0.0000000E+000	3.6804317E+001	1.3365177E+000	5.3195679E+001	-1.296309877932568E-007
6.3207932E+000	5.0075992E+002	3.7894983E+002	6.2798364E+002	-3.7116596E+001	01/10/2024 22:44:23.9049	-3.2338656E-003	-1.6377878E-004	6.6445694E+001	2.4195444E+001	1.000000000000000E+000	12	9.0516172E-003	1.4413778E-005	0	2.020399677214068E-005	1.2697929E-003	9.6091512E-004	1.5923982E-003	3.7116596E+001	2.4195443E+004	3.1972855E+004	4.0095922E+004	-5.2883404E+001	0.0000000E+000	0.0000000E+000	0.0000000E+000	5.2883404E+001	0.0000000E+000	0.0000000E+000	0.0000000E+000	-5.2883404E+001	0.0000000E+000	0.0000000E+000	0.0000000E+000	-3.7116596E+001	0.0000000E+000	0.0000000E+000	0.0000000E+000	3.7116596E+001	1.3214412E+000	5.2883408E+001	-6.131870020999579E-008
5.0144420E+000	5.4740265E+002	4.2165091E+002	6.9096973E+002	-3.7606182E+001	01/10/2024 22:44:25.6032	-3.2151302E-003	-6.6636821E-005	7.5273911E+001	2.8030609E+001	1.000000000000000E+000	12	9.0529285E-003	1.3101773E-005	0	2.032458746965787E-005	1.1465391E-003	8.8315108E-004	1.4472414E-003	3.7606182E+001	2.8030609E+004	3.6390363E+004	4.5934449E+004	-5.2393818E+001	0.0000000E+000	0.0000000E+000	0.0000000E+000	5.2393818E+001	0.0000000E+000	0.0000000E+000	0.0000000E+000	-5.2393818E+001	0.0000000E+000	0.0000000E+000	0.0000000E+000	-3.7606182E+001	0.0000000E+000	0.0000000E+000	0.0000000E+000	3.7606182E+001	1.2982366E+000	5.2393814E+001	1.205906975171981E-007
3.9859698E+000	6.0000366E+002	4.7027997E+002	7.6234351E+002	-3.8089180E+001	01/10/2024 22:44:27.7076	-3.2147940E-003	-1.8885617E-005	8.4904297E+001	3.2310318E+001	1.000000000000000E+000	12	9.0574138E-003	1.1881014E-005	0	2.022682175676538E-005	1.0324107E-003	8.0919859E-004	1.3117447E-003	3.8089180E+001	3.2310318E+004	4.1222906E+004	5.2376375E+004	-5.1910820E+001	0.0000000E+000	0.0000000E+000	0.0000000E+000	5.1910820E+001	0.0000000E+000	0.0000000E+000	0.0000000E+000	-5.1910820E+001	0.0000000E+000	0.0000000E+000	0.0000000E+000	-3.8089180E+001	0.0000000E+000	0.0000000E+000	0.0000000E+000	3.8089180E+001	1.2758435E+000	5.1910828E+001	-9.776571289249857E-008
3.1655185E+000	6.5864209E+002	5.2478296E+002	8.4214398E+002	-3.8546608E+001	01/10/2024 22:44:30.6968	-3.2144112E-003	-1.1138250E-005	9.5806625E+001	3.7203369E+001	1.000000000000000E+000	13	9.0615442E-003	1.0760089E-005	0	2.025915814426106E-005	9.2870282E-004	7.3995785E-004	1.1874454E-003	3.8546608E+001	3.7203367E+004	4.6693031E+004	5.9702008E+004	-5.1453392E+001	0.0000000E+000	0.0000000E+000	0.0000000E+000	5.1453392E+001	0.0000000E+000	0.0000000E+000	0.0000000E+000	-5.1453392E+001	0.0000000E+000	0.0000000E+000	0.0000000E+000	-3.8546608E+001	0.0000000E+000	0.0000000E+000	0.0000000E+000	3.8546608E+001	1.2550752E+000	5.1453400E+001	3.233638749568755E-008
2.5136747E+000	7.2290466E+002	5.8521411E+002	9.3008960E+002	-3.8991261E+001	01/10/2024 22:44:33.9697	-3.2080943E-003	-9.9358431E-007	1.0819228E+002	4.2832779E+001	1.000000000000000E+000	13	9.0609202E-003	9.7419861E-006	0	2.041449296899507E-005	8.3566352E-004	6.7649595E-004	1.0751652E-003	3.8991261E+001	4.2832777E+004	5.2910574E+004	6.8074781E+004	-5.1008739E+001	0.0000000E+000	0.0000000E+000	0.0000000E+000	5.1008739E+001	0.0000000E+000	0.0000000E+000	0.0000000E+000	-5.1008739E+001	0.0000000E+000	0.0000000E+000	0.0000000E+000	-3.8991261E+001	0.0000000E+000	0.0000000E+000	0.0000000E+000	3.8991261E+001	1.2352823E+000	5.1008743E+001	1.553348247340033E-007
1.9970603E+000	7.9434607E+002	6.5320587E+002	1.0284277E+003	-3.9431110E+001	01/10/2024 22:44:38.0657	-3.2034558E-003	4.9864724E-007	1.2200534E+002	4.9218849E+001	1.000000000000000E+000	13	9.0603754E-003	8.8099287E-006	0	2.035396282980479E-005	7.5103849E-004	6.1759324E-004	9.7235804E-004	3.9431110E+001	4.9218852E+004	5.9853719E+004	7.7491695E+004	-5.0568890E+001	0.0000000E+000	0.0000000E+000	0.0000000E+000	5.0568890E+001	0.0000000E+000	0.0000000E+000	0.0000000E+000	-5.0568890E+001	0.0000000E+000	0.0000000E+000	0.0000000E+000	-3.9431110E+001	0.0000000E+000	0.0000000E+000	0.0000000E+000	3.9431110E+001	1.2160730E+000	5.0568893E+001	-6.053013919028071E-008
1.5879065E+000	8.7269110E+002	7.3026123E+002	1.1379241E+003	-3.9922337E+001	01/10/2024 22:44:43.1898	-3.1884448E-003	3.2491107E-006	1.3725145E+002	5.6525822E+001	1.000000000000000E+000	13	9.0624765E-003	7.9640431E-006	0	2.020605470060751E-005	6.7395973E-004	5.6396436E-004	8.7879325E-004	3.9922337E+001	5.6525824E+004	6.7550594E+004	8.8080938E+004	-5.0077663E+001	0.0000000E+000	0.0000000E+000	0.0000000E+000	5.0077663E+001	0.0000000E+000	0.0000000E+000	0.0000000E+000	-5.0077663E+001	0.0000000E+000	0.0000000E+000	0.0000000E+000	-3.9922337E+001	0.0000000E+000	0.0000000E+000	0.0000000E+000	3.9922337E+001	1.1950396E+000	5.0077667E+001	-1.479081291972757E-007
1.2596742E+000	9.6117267E+002	8.1739142E+002	1.2617375E+003	-4.0378189E+001	01/10/2024 22:44:49.6270	-3.1934569E-003	4.1252920E-006	1.5457236E+002	6.4871498E+001	1.000000000000000E+000	13	9.0605319E-003	7.1809955E-006	0	2.009174422579778E-005	6.0375867E-004	5.1344273E-004	7.9255784E-004	4.0378189E+001	6.4871492E+004	7.6282555E+004	1.0013660E+005	-4.9621811E+001	0.0000000E+000	0.0000000E+000	0.0000000E+000	4.9621811E+001	0.0000000E+000	0.0000000E+000	0.0000000E+000	-4.9621811E+001	0.0000000E+000	0.0000000E+000	0.0000000E+000	-4.0378189E+001	0.0000000E+000	0.0000000E+000	0.0000000E+000	4.0378189E+001	1.1759026E+000	4.9621811E+001	-1.143104748097266E-007
1.0000639E+000	1.0593027E+003	9.1607904E+002	1.4004724E+003	-4.0853065E+001	01/10/2024 22:44:57.7133	-3.2005352E-003	4.2657393E-006	1.7372385E+002	7.4332062E+001	1.000000000000000E+000	13	9.0603381E-003	6.4694868E-006	0	2.004743569440310E-005	5.4009602E-004	4.6707201E-004	7.1404479E-004	4.0853065E+001	7.4332063E+004	8.5953453E+004	1.1363648E+005	-4.9146935E+001	0.0000000E+000	0.0000000E+000	0.0000000E+000	4.9146935E+001	0.0000000E+000	0.0000000E+000	0.0000000E+000	-4.9146935E+001	0.0000000E+000	0.0000000E+000	0.0000000E+000	-4.0853065E+001	0.0000000E+000	0.0000000E+000	0.0000000E+000	4.0853065E+001	1.1563443E+000	4.9146942E+001	-4.430853139468884E-008
7.9443753E-001	1.1687094E+003	1.0275485E+003	1.5561932E+003	-4.1322464E+001	01/10/2024 22:45:07.8671	-3.1987943E-003	1.9378417E-006	1.9496564E+002	8.5003273E+001	1.000000000000000E+000	13	9.0614706E-003	5.8228443E-006	0	2.006120725186257E-005	4.8259131E-004	4.2430215E-004	6.4259372E-004	4.1322464E+001	8.5003266E+004	9.6680719E+004	1.2873506E+005	-4.8677536E+001	0.0000000E+000	0.0000000E+000	0.0000000E+000	4.8677536E+001	0.0000000E+000	0.0000000E+000	0.0000000E+000	-4.8677536E+001	0.0000000E+000	0.0000000E+000	0.0000000E+000	-4.1322464E+001	0.0000000E+000	0.0000000E+000	0.0000000E+000	4.1322464E+001	1.1373764E+000	4.8677536E+001	1.377155745947454E-008
6.3126212E-001	1.2906981E+003	1.1532043E+003	1.7308328E+003	-4.1779938E+001	01/10/2024 22:45:20.6279	-3.1983801E-003	5.3278659E-006	2.1862717E+002	9.7052437E+001	1.000000000000000E+000	13	9.0615740E-003	5.2353839E-006	0	2.010209668072629E-005	4.3083847E-004	3.8494266E-004	5.7775655E-004	4.1779938E+001	9.7052438E+004	1.0862377E+005	1.4566502E+005	-4.8220062E+001	0.0000000E+000	0.0000000E+000	0.0000000E+000	4.8220062E+001	0.0000000E+000	0.0000000E+000	0.0000000E+000	-4.8220062E+001	0.0000000E+000	0.0000000E+000	0.0000000E+000	-4.1779938E+001	0.0000000E+000	0.0000000E+000	0.0000000E+000	4.1779938E+001	1.1192276E+000	4.8220062E+001	4.088942886371958E-008
5.0118679E-001	1.4282397E+003	1.2973208E+003	1.9294844E+003	-4.2249981E+001	01/10/2024 22:45:38.7222	-3.1965803E-003	3.1629304E-006	2.4477841E+002	1.1065865E+002	1.000000000000000E+000	14	9.0645235E-003	4.6978994E-006	0	2.020695736098585E-005	3.8363531E-004	3.4846953E-004	5.1827315E-004	4.2249981E+001	1.1065866E+005	1.2182576E+005	1.6458084E+005	-4.7750019E+001	0.0000000E+000	0.0000000E+000	0.0000000E+000	4.7750019E+001	0.0000000E+000	0.0000000E+000	0.0000000E+000	-4.7750019E+001	0.0000000E+000	0.0000000E+000	0.0000000E+000	-4.2249981E+001	0.0000000E+000	0.0000000E+000	0.0000000E+000	4.2249981E+001	1.1009148E+000	4.7750015E+001	1.048606802595598E-007
3.9867833E-001	1.5812084E+003	1.4601669E+003	2.1522795E+003	-4.2720928E+001	01/10/2024 22:45:58.8787	-3.2079881E-003	-1.4465704E-006	2.7339780E+002	1.2583534E+002	1.000000000000000E+000	14	9.0626599E-003	4.2107263E-006	0	2.029768732011452E-005	3.4134358E-004	3.1521372E-004	4.6462365E-004	4.2720928E+001	1.2583534E+005	1.3626655E+005	1.8548073E+005	-4.7279072E+001	0.0000000E+000	0.0000000E+000	0.0000000E+000	4.7279072E+001	0.0000000E+000	0.0000000E+000	0.0000000E+000	-4.7279072E+001	0.0000000E+000	0.0000000E+000	0.0000000E+000	-4.2720928E+001	0.0000000E+000	0.0000000E+000	0.0000000E+000	4.2720928E+001	1.0828956E+000	4.7279068E+001	9.072995912866915E-008
3.1619310E-001	1.7552505E+003	1.6452382E+003	2.4057666E+003	-4.3147018E+001	01/10/2024 22:46:24.2695	-3.2011971E-003	1.3842256E-006	3.0594189E+002	1.4308350E+002	1.000000000000000E+000	14	9.0616951E-003	3.7666559E-006	0	2.039838056946600E-005	3.0327187E-004	2.8426395E-004	4.1566792E-004	4.3147018E+001	1.4308350E+005	1.5265108E+005	2.0922533E+005	-4.6852982E+001	0.0000000E+000	0.0000000E+000	0.0000000E+000	4.6852982E+001	0.0000000E+000	0.0000000E+000	0.0000000E+000	-4.6852982E+001	0.0000000E+000	0.0000000E+000	0.0000000E+000	-4.3147018E+001	0.0000000E+000	0.0000000E+000	0.0000000E+000	4.3147018E+001	1.0668671E+000	4.6852982E+001	1.006932493514781E-007
2.5117347E-001	1.9499603E+003	1.8549299E+003	2.6913027E+003	-4.3569286E+001	01/10/2024 22:46:56.2151	-3.2081527E-003	6.9523401E-007	3.4160077E+002	1.6227394E+002	1.000000000000000E+000	14	9.0622734E-003	3.3672441E-006	0	2.049805681258103E-005	2.6921587E-004	2.5609578E-004	3.7156726E-004	4.3569286E+001	1.6227394E+005	1.7058744E+005	2.3544194E+005	-4.6430714E+001	0.0000000E+000	0.0000000E+000	0.0000000E+000	4.6430714E+001	0.0000000E+000	0.0000000E+000	0.0000000E+000	-4.6430714E+001	0.0000000E+000	0.0000000E+000	0.0000000E+000	-4.3569286E+001	0.0000000E+000	0.0000000E+000	0.0000000E+000	4.3569286E+001	1.0512313E+000	4.6430710E+001	9.967624311503002E-008
1.9980818E-001	2.1675818E+003	2.0893979E+003	3.0106470E+003	-4.3947823E+001	01/10/2024 22:47:36.3535	-3.2086216E-003	6.1156857E-007	3.8122882E+002	1.8361510E+002	1.000000000000000E+000	14	9.0597104E-003	3.0092237E-006	0	2.060159072821054E-005	2.3914198E-004	2.3051622E-004	3.3215451E-004	4.3947823E+001	1.8361508E+005	1.9048583E+005	2.6457391E+005	-4.6052177E+001	0.0000000E+000	0.0000000E+000	0.0000000E+000	4.6052177E+001	0.0000000E+000	0.0000000E+000	0.0000000E+000	-4.6052177E+001	0.0000000E+000	0.0000000E+000	0.0000000E+000	-4.3947823E+001	0.0000000E+000	0.0000000E+000	0.0000000E+000	4.3947823E+001	1.0374193E+000	4.6052185E+001	1.035339156295143E-007
1.5846856E-001	2.4147603E+003	2.3589126E+003	3.3757275E+003	-4.4329720E+001	01/10/2024 22:48:26.9427	-3.2104559E-003	7.9233700E-007	4.2576031E+002	2.0789981E+002	1.000000000000000E+000	14	9.0604946E-003	2.6840123E-006	0	2.071139307587176E-005	2.1190406E-004	2.0700321E-004	2.9623244E-004	4.4329720E+001	2.0789980E+005	2.1282188E+005	2.9751550E+005	-4.5670280E+001	0.0000000E+000	0.0000000E+000	0.0000000E+000	4.5670280E+001	0.0000000E+000	0.0000000E+000	0.0000000E+000	-4.5670280E+001	0.0000000E+000	0.0000000E+000	0.0000000E+000	-4.4329720E+001	0.0000000E+000	0.0000000E+000	0.0000000E+000	4.4329720E+001	1.0236752E+000	4.5670288E+001	1.098023476612197E-007
1.2590654E-001	2.6905581E+003	2.6613284E+003	3.7844116E+003	-4.4687080E+001	01/10/2024 22:49:30.5971	-3.2068586E-003	1.4203144E-006	4.7497784E+002	2.3489490E+002	1.000000000000000E+000	14	9.0580769E-003	2.3935231E-006	0	2.083807192800327E-005	1.8786488E-004	1.8582397E-004	2.6424185E-004	4.4687080E+001	2.3489489E+005	2.3747475E+005	3.3402075E+005	-4.5312920E+001	0.0000000E+000	0.0000000E+000	0.0000000E+000	4.5312920E+001	0.0000000E+000	0.0000000E+000	0.0000000E+000	-4.5312920E+001	0.0000000E+000	0.0000000E+000	0.0000000E+000	-4.4687080E+001	0.0000000E+000	0.0000000E+000	0.0000000E+000	4.4687080E+001	1.0109831E+000	4.5312927E+001	1.266788521315128E-007
1.0013975E-001	2.9980361E+003	3.0027283E+003	4.2431826E+003	-4.5044800E+001	01/10/2024 22:50:50.6124	-3.2136787E-003	7.8869272E-007	5.2929474E+002	2.6506122E+002	1.000000000000000E+000	14	9.0590045E-003	2.1349551E-006	0	2.096853603411119E-005	1.6651502E-004	1.6677563E-004	2.3567215E-004	4.5044800E+001	2.6506122E+005	2.6464703E+005	3.7456041E+005	-4.4955200E+001	0.0000000E+000	0.0000000E+000	0.0000000E+000	4.4955200E+001	0.0000000E+000	0.0000000E+000	0.0000000E+000	-4.4955200E+001	0.0000000E+000	0.0000000E+000	0.0000000E+000	-4.5044800E+001	0.0000000E+000	0.0000000E+000	0.0000000E+000	4.5044800E+001	9.9843740E-001	4.4955200E+001	1.304641061079153E-007
7.9421178E-002	3.3458057E+003	3.3951616E+003	4.7667114E+003	-4.5419502E+001	01/10/2024 22:52:31.4829	-3.2130394E-003	8.2435707E-007	5.9023285E+002	2.9943774E+002	1.000000000000000E+000	14	9.0605170E-003	1.9007899E-006	0	2.111176276164042E-005	1.4725261E-004	1.4942481E-004	2.0978824E-004	4.5419502E+001	2.9943775E+005	2.9508475E+005	4.2040216E+005	-4.4580498E+001	0.0000000E+000	0.0000000E+000	0.0000000E+000	4.4580498E+001	0.0000000E+000	0.0000000E+000	0.0000000E+000	-4.4580498E+001	0.0000000E+000	0.0000000E+000	0.0000000E+000	-4.5419502E+001	0.0000000E+000	0.0000000E+000	0.0000000E+000	4.5419502E+001	9.8546284E-001	4.4580505E+001	1.432267275292328E-007
6.3101739E-002	3.7365242E+003	3.8336572E+003	5.3533672E+003	-4.5735123E+001	01/10/2024 22:54:38.4214	-3.2090063E-003	2.4945907E-006	6.5790857E+002	3.3739453E+002	1.000000000000000E+000	14	9.0569109E-003	1.6918158E-006	0	2.125727552125207E-005	1.3038082E-004	1.3377015E-004	1.8679832E-004	4.5735123E+001	3.3739450E+005	3.2884594E+005	4.7114191E+005	-4.4264877E+001	0.0000000E+000	0.0000000E+000	0.0000000E+000	4.4264877E+001	0.0000000E+000	0.0000000E+000	0.0000000E+000	-4.4264877E+001	0.0000000E+000	0.0000000E+000	0.0000000E+000	-4.5735123E+001	0.0000000E+000	0.0000000E+000	0.0000000E+000	4.5735123E+001	9.7466308E-001	4.4264877E+001	1.455127596116458E-007
5.0154075E-002	4.1665381E+003	4.3301396E+003	6.0091724E+003	-4.6103081E+001	01/10/2024 22:57:18.1133	-3.2201679E-003	1.5738216E-006	7.3284479E+002	3.8052789E+002	1.000000000000000E+000	14	9.0585500E-003	1.5074538E-006	0	2.147852774690167E-005	1.1538412E-004	1.1991475E-004	1.6641227E-004	4.6103081E+001	3.8052788E+005	3.6615075E+005	5.2807938E+005	-4.3896919E+001	0.0000000E+000	0.0000000E+000	0.0000000E+000	4.3896919E+001	0.0000000E+000	0.0000000E+000	0.0000000E+000	-4.3896919E+001	0.0000000E+000	0.0000000E+000	0.0000000E+000	-4.6103081E+001	0.0000000E+000	0.0000000E+000	0.0000000E+000	4.6103081E+001	9.6221793E-001	4.3896912E+001	2.212522256496003E-007
3.9804459E-002	4.6412461E+003	4.8885063E+003	6.7408203E+003	-4.6486271E+001	01/10/2024 23:00:39.3087	-3.2108196E-003	1.3140723E-006	8.1792261E+002	4.3016898E+002	1.000000000000000E+000	14	9.0596434E-003	1.3439972E-006	0	2.172240655462848E-005	1.0214311E-004	1.0758474E-004	1.4834989E-004	4.6486271E+001	4.3016903E+005	4.0841109E+005	5.9316525E+005	-4.3513729E+001	0.0000000E+000	0.0000000E+000	0.0000000E+000	4.3513729E+001	0.0000000E+000	0.0000000E+000	0.0000000E+000	-4.3513729E+001	0.0000000E+000	0.0000000E+000	0.0000000E+000	-4.6486271E+001	0.0000000E+000	0.0000000E+000	0.0000000E+000	4.6486271E+001	9.4942009E-001	4.3513733E+001	2.438788077268129E-007
3.1667247E-002	5.1403906E+003	5.5113110E+003	7.5364556E+003	-4.6994385E+001	01/10/2024 23:04:52.1853	-3.2169677E-003	1.3414858E-006	9.1191614E+002	4.8767496E+002	1.000000000000000E+000	14	9.0582408E-003	1.2019232E-006	0	2.198873444150650E-005	9.0502755E-005	9.7033255E-005	1.3268836E-004	4.6994385E+001	4.8767497E+005	4.5485363E+005	6.6687231E+005	-4.3005615E+001	0.0000000E+000	0.0000000E+000	0.0000000E+000	4.3005615E+001	0.0000000E+000	0.0000000E+000	0.0000000E+000	-4.3005615E+001	0.0000000E+000	0.0000000E+000	0.0000000E+000	-4.6994385E+001	0.0000000E+000	0.0000000E+000	0.0000000E+000	4.6994385E+001	9.3269831E-001	4.3005615E+001	2.663278868780158E-007
2.5144994E-002	5.6618062E+003	6.2339956E+003	8.4213271E+003	-4.7753811E+001	01/10/2024 23:10:10.6364	-3.2221964E-003	1.2041426E-006	1.0153180E+003	5.5638318E+002	1.000000000000000E+000	14	9.0595102E-003	1.0757818E-006	0	2.229448564026320E-005	7.9835110E-005	8.7903347E-005	1.1874613E-004	4.7753811E+001	5.5638325E+005	5.0531541E+005	7.5160225E+005	-4.2246189E+001	0.0000000E+000	0.0000000E+000	0.0000000E+000	4.2246189E+001	0.0000000E+000	0.0000000E+000	0.0000000E+000	-4.2246189E+001	0.0000000E+000	0.0000000E+000	0.0000000E+000	-4.7753811E+001	0.0000000E+000	0.0000000E+000	0.0000000E+000	4.7753811E+001	9.0821463E-001	4.2246185E+001	3.057511987567002E-007
1.9949391E-002	6.1960996E+003	7.1012275E+003	9.4243877E+003	-4.8894024E+001	01/10/2024 23:16:52.0066	-3.2227407E-003	1.0079090E-006	1.1234586E+003	6.3784863E+002	1.000000000000000E+000	14	9.0577072E-003	9.6109238E-007	0	2.263421755845790E-005	6.9760907E-005	7.9951598E-005	1.0610769E-004	4.8894024E+001	6.3784863E+005	5.5654800E+005	8.4652025E+005	-4.1105976E+001	0.0000000E+000	0.0000000E+000	0.0000000E+000	4.1105976E+001	0.0000000E+000	0.0000000E+000	0.0000000E+000	-4.1105976E+001	0.0000000E+000	0.0000000E+000	0.0000000E+000	-4.8894024E+001	0.0000000E+000	0.0000000E+000	0.0000000E+000	4.8894024E+001	8.7253922E-001	4.1105972E+001	3.397319181947035E-007
1.5860692E-002	6.7311606E+003	8.1513687E+003	1.0571345E+004	-5.0451107E+001	01/10/2024 23:25:16.8271	-3.2099439E-003	9.0696278E-007	1.2310267E+003	7.3192749E+002	1.000000000000000E+000	14	9.0603996E-003	8.5707160E-007	0	2.303576377996301E-005	6.0232302E-005	7.2940718E-005	9.4595343E-005	5.0451107E+001	7.3192750E+005	6.0440419E+005	9.4922194E+005	-3.9548893E+001	0.0000000E+000	0.0000000E+000	0.0000000E+000	3.9548893E+001	0.0000000E+000	0.0000000E+000	0.0000000E+000	-3.9548893E+001	0.0000000E+000	0.0000000E+000	0.0000000E+000	-5.0451107E+001	0.0000000E+000	0.0000000E+000	0.0000000E+000	5.0451107E+001	8.2577062E-001	3.9548889E+001	4.015462215051147E-007
1.2606665E-002	7.2736245E+003	9.4509785E+003	1.1925880E+004	-5.2417542E+001	01/10/2024 23:35:51.9327	-3.2224278E-003	7.8830425E-007	1.3358052E+003	8.3891089E+002	1.000000000000000E+000	14	9.0597766E-003	7.5967364E-007	0	2.344751359642927E-005	5.1141098E-005	6.6450142E-005	8.3851257E-005	5.2417542E+001	8.3891088E+005	6.4563925E+005	1.0585941E+006	-3.7582458E+001	0.0000000E+000	0.0000000E+000	0.0000000E+000	3.7582458E+001	0.0000000E+000	0.0000000E+000	0.0000000E+000	-3.7582458E+001	0.0000000E+000	0.0000000E+000	0.0000000E+000	-5.2417542E+001	0.0000000E+000	0.0000000E+000	0.0000000E+000	5.2417542E+001	7.6961601E-001	3.7582458E+001	4.117498164662511E-007
1.0009170E-002	7.8650645E+003	1.1103236E+004	1.3606656E+004	-5.4687851E+001	01/10/2024 23:49:11.8386	-3.2152664E-003	1.0950779E-006	1.4320973E+003	9.5360577E+002	1.000000000000000E+000	14	9.0606511E-003	6.6589843E-007	0	2.387065349035892E-005	4.2481464E-005	5.9971757E-005	7.3493444E-005	5.4687851E+001	9.5360581E+005	6.7549413E+005	1.1686130E+006	-3.5312149E+001	0.0000000E+000	0.0000000E+000	0.0000000E+000	3.5312149E+001	0.0000000E+000	0.0000000E+000	0.0000000E+000	-3.5312149E+001	0.0000000E+000	0.0000000E+000	0.0000000E+000	-5.4687851E+001	0.0000000E+000	0.0000000E+000	0.0000000E+000	5.4687851E+001	7.0835781E-001	3.5312149E+001	4.231398939296508E-007
7.9507306E-003	8.5170010E+003	1.3153263E+004	1.5669960E+004	-5.7076134E+001	01/11/2024 00:05:58.8217	-3.2241300E-003	7.6252491E-007	1.5218771E+003	1.0722864E+003	1.000000000000000E+000	14	9.0596350E-003	5.7815305E-007	0	2.431022757486183E-005	3.4685738E-005	5.3567048E-005	6.3816369E-005	5.7076134E+001	1.0722864E+006	6.9432694E+005	1.2774538E+006	-3.2923866E+001	0.0000000E+000	0.0000000E+000	0.0000000E+000	3.2923866E+001	0.0000000E+000	0.0000000E+000	0.0000000E+000	-3.2923866E+001	0.0000000E+000	0.0000000E+000	0.0000000E+000	-5.7076134E+001	0.0000000E+000	0.0000000E+000	0.0000000E+000	5.7076134E+001	6.4752001E-001	3.2923859E+001	4.395740845029144E-007
6.3119070E-003	9.3104238E+003	1.5713655E+004	1.8264801E+004	-5.9353031E+001	01/11/2024 00:27:07.2399	-3.2208844E-003	1.3410818E-006	1.6046573E+003	1.1877003E+003	1.000000000000000E+000	14	9.0545733E-003	4.9573896E-007	0	2.491897700205760E-005	2.7908700E-005	4.7102865E-005	5.4750119E-005	5.9353031E+001	1.1877003E+006	7.0371875E+005	1.3805260E+006	-3.0646969E+001	0.0000000E+000	0.0000000E+000	0.0000000E+000	3.0646969E+001	0.0000000E+000	0.0000000E+000	0.0000000E+000	-3.0646969E+001	0.0000000E+000	0.0000000E+000	0.0000000E+000	-5.9353031E+001	0.0000000E+000	0.0000000E+000	0.0000000E+000	5.9353031E+001	5.9250528E-001	3.0646973E+001	6.087494271957650E-007
5.0154077E-003	1.0257010E+004	1.8874143E+004	2.1481143E+004	-6.1478466E+001	01/11/2024 00:53:43.5306	-3.2257803E-003	1.1334677E-006	1.6813055E+003	1.2979751E+003	1.000000000000000E+000	14	9.0562422E-003	4.2159036E-007	0	2.547189672998765E-005	2.2228287E-005	4.0902745E-005	4.6552457E-005	6.1478466E+001	1.2979750E+006	7.0537469E+005	1.4772585E+006	-2.8521534E+001	0.0000000E+000	0.0000000E+000	0.0000000E+000	2.8521534E+001	0.0000000E+000	0.0000000E+000	0.0000000E+000	-2.8521534E+001	0.0000000E+000	0.0000000E+000	0.0000000E+000	-6.1478466E+001	0.0000000E+000	0.0000000E+000	0.0000000E+000	6.1478466E+001	5.4344243E-001	2.8521530E+001	5.529197279300501E-007
3.9839000E-003	1.1431981E+004	2.2753740E+004	2.5464148E+004	-6.3324036E+001	01/11/2024 01:27:13.1132	-3.2242490E-003	9.8528278E-007	1.7557349E+003	1.4018650E+003	1.000000000000000E+000	14	9.0588583E-003	3.5574951E-007	0	2.605443058581240E-005	1.7630442E-005	3.5090899E-005	3.9270901E-005	6.3324036E+001	1.4018650E+006	7.0432794E+005	1.5688541E+006	-2.6675964E+001	0.0000000E+000	0.0000000E+000	0.0000000E+000	2.6675964E+001	0.0000000E+000	0.0000000E+000	0.0000000E+000	-2.6675964E+001	0.0000000E+000	0.0000000E+000	0.0000000E+000	-6.3324036E+001	0.0000000E+000	0.0000000E+000	0.0000000E+000	6.3324036E+001	5.0242209E-001	2.6675964E+001	5.825338558247497E-007
3.1634860E-003	1.2926743E+004	2.7466996E+004	3.0356820E+004	-6.4796997E+001	01/11/2024 02:09:23.8403	-3.2221121E-003	1.0807495E-006	1.8316523E+003	1.4995220E+003	1.000000000000000E+000	14	9.0593444E-003	2.9842863E-007	0	2.675655796195805E-005	1.4027382E-005	2.9805649E-005	3.2941527E-005	6.4796997E+001	1.4995219E+006	7.0571744E+005	1.6572879E+006	-2.5203003E+001	0.0000000E+000	0.0000000E+000	0.0000000E+000	2.5203003E+001	0.0000000E+000	0.0000000E+000	0.0000000E+000	-2.5203003E+001	0.0000000E+000	0.0000000E+000	0.0000000E+000	-6.4796997E+001	0.0000000E+000	0.0000000E+000	0.0000000E+000	6.4796997E+001	4.7062820E-001	2.5203003E+001	7.021273761456564E-007
2.5131374E-003	1.4812783E+004	3.3153426E+004	3.6312094E+004	-6.5925148E+001	01/11/2024 03:02:29.4496	-3.2227926E-003	9.4910922E-007	1.9101854E+003	1.5923177E+003	1.000000000000000E+000	14	9.0599582E-003	2.4950251E-007	0	2.758365005208738E-005	1.1233991E-005	2.5143505E-005	2.7539034E-005	6.5925148E+001	1.5923178E+006	7.1143956E+005	1.7440246E+006	-2.4074852E+001	0.0000000E+000	0.0000000E+000	0.0000000E+000	2.4074852E+001	0.0000000E+000	0.0000000E+000	0.0000000E+000	-2.4074852E+001	0.0000000E+000	0.0000000E+000	0.0000000E+000	-6.5925148E+001	0.0000000E+000	0.0000000E+000	0.0000000E+000	6.5925148E+001	4.4679496E-001	2.4074860E+001	8.270920901293258E-007
1.9958063E-003	1.7217021E+004	3.9988094E+004	4.3537035E+004	-6.6705528E+001	01/11/2024 04:09:21.1497	-3.2279631E-003	1.0819183E-006	1.9942106E+003	1.6823438E+003	1.000000000000000E+000	14	9.0593649E-003	2.0808410E-007	0	2.876605662933798E-005	9.0832291E-006	2.1096626E-005	2.2968950E-005	6.6705528E+001	1.6823438E+006	7.2433925E+005	1.8316516E+006	-2.3294472E+001	0.0000000E+000	0.0000000E+000	0.0000000E+000	2.3294472E+001	0.0000000E+000	0.0000000E+000	0.0000000E+000	-2.3294472E+001	0.0000000E+000	0.0000000E+000	0.0000000E+000	-6.6705528E+001	0.0000000E+000	0.0000000E+000	0.0000000E+000	6.6705528E+001	4.3055370E-001	2.3294464E+001	1.182406577250603E-006
1.5852563E-003	2.0237500E+004	4.8114797E+004	5.2197605E+004	-6.7187958E+001	01/11/2024 05:33:33.5254	-3.2256013E-003	1.1417025E-006	2.0866133E+003	1.7729567E+003	1.000000000000000E+000	14	9.0567200E-003	1.7350834E-007	0	3.041223291086307E-005	7.4277227E-006	1.7659464E-005	1.9157967E-005	6.7187958E+001	1.7729569E+006	7.4572094E+005	1.9234021E+006	-2.2812042E+001	0.0000000E+000	0.0000000E+000	0.0000000E+000	2.2812042E+001	0.0000000E+000	0.0000000E+000	0.0000000E+000	-2.2812042E+001	0.0000000E+000	0.0000000E+000	0.0000000E+000	-6.7187958E+001	0.0000000E+000	0.0000000E+000	0.0000000E+000	6.7187958E+001	4.2060867E-001	2.2812042E+001	1.646176281525087E-006
1.2591266E-003	2.4015537E+004	5.7774785E+004	6.2567340E+004	-6.7428566E+001	01/11/2024 07:19:35.1379	-3.2175414E-003	8.6195058E-007	2.1878242E+003	1.8654934E+003	1.000000000000000E+000	14	9.0572676E-003	1.4476031E-007	0	3.191871321396543E-005	6.1347500E-006	1.4758526E-005	1.5982780E-005	6.7428566E+001	1.8654933E+006	7.7543888E+005	2.0202403E+006	-2.2571434E+001	0.0000000E+000	0.0000000E+000	0.0000000E+000	2.2571434E+001	0.0000000E+000	0.0000000E+000	0.0000000E+000	-2.2571434E+001	0.0000000E+000	0.0000000E+000	0.0000000E+000	-6.7428566E+001	0.0000000E+000	0.0000000E+000	0.0000000E+000	6.7428566E+001	4.1567504E-001	2.2571442E+001	1.506480303102360E-006
1.0001622E-003	2.8657396E+004	6.9129641E+004	7.4834172E+004	-6.7483757E+001	01/11/2024 09:33:01.6881	-3.2322414E-003	9.5258889E-007	2.3018945E+003	1.9643284E+003	1.000000000000000E+000	14	9.0587242E-003	1.2105063E-007	0	3.405802359227851E-005	5.1172524E-006	1.2344241E-005	1.3362879E-005	6.7483757E+001	1.9643281E+006	8.1430388E+005	2.1264233E+006	-2.2516243E+001	0.0000000E+000	0.0000000E+000	0.0000000E+000	2.2516243E+001	0.0000000E+000	0.0000000E+000	0.0000000E+000	-2.2516243E+001	0.0000000E+000	0.0000000E+000	0.0000000E+000	-6.7483757E+001	0.0000000E+000	0.0000000E+000	0.0000000E+000	6.7483757E+001	4.1454571E-001	2.2516235E+001	2.139310378313086E-006